Mass,60
Length,0.734
Angle,45
t,θ
0.0,-43.70783311375008
0.01666666666666788,-42.3092186042444
0.03333333333333394,-40.81902315896262
0.05,-39.134024336181994
0.06666666666666606,-37.40434270643737
0.08333333333333394,-35.431561260490966
0.10000000000000182,-33.4420947464579
0.11666666666666788,-31.19247593787773
0.13333333333333394,-28.990083799972986
0.15,-26.59626268353924
0.16666666666666788,-24.112274079609783
0.18333333333333393,-21.711487393919047
0.20000000000000182,-19.34639026765878
0.21666666666666606,-16.474996090885515
0.23333333333333395,-13.930218383779623
0.25,-11.109896529680407
0.2666666666666679,-8.313956953009312
0.28333333333333394,-5.603830210818819
0.3,-2.832739584964968
0.31666666666666604,-0.1322726724590152
0.3333333333333339,2.497906589030138
0.3500000000000018,5.284740464565996
0.36666666666666786,8.008407900783803
0.3833333333333339,10.68043179759138
0.4,13.299863092952123
0.4166666666666679,15.951512605023987
0.43333333333333396,18.395891312366224
0.45000000000000184,20.95161592910446
0.46666666666666606,23.39409074095383
0.48333333333333395,25.698371779823805
0.5,28.060650938812316
0.5166666666666678,30.29682114108859
0.533333333333334,32.39910553865024
0.55,34.439280136129504
0.5666666666666661,36.28668911570947
0.5833333333333339,37.86139501535141
0.6000000000000019,39.21260706033503
0.6166666666666679,40.66468980070976
0.633333333333334,41.958560112347186
0.65,43.24561180856606
0.6666666666666679,44.154148230461125
0.6833333333333339,45.06650620946555
0.7000000000000018,45.872087956591145
0.716666666666666,46.777091220711974
0.733333333333334,47.205127428902095
0.75,47.52574214938485
0.7666666666666678,47.7354031266643
0.783333333333334,47.74063055835514
0.8,47.73674415279037
0.8166666666666661,47.46460882784453
0.8333333333333339,47.0947376226583
0.8500000000000019,46.405668170289765
0.8666666666666679,45.76066612212204
0.883333333333334,44.966352977800405
0.9,43.85158538935972
0.9166666666666679,42.78052590849072
0.9333333333333339,41.49852401706989
0.9500000000000018,40.171023679181744
0.966666666666666,38.55765528444233
0.983333333333334,36.76304747538674
1.0,34.86309284558317
1.016666666666668,32.82865098483671
1.0333333333333339,30.730016100854495
1.05,28.70568807339777
1.066666666666666,26.444383545207817
1.083333333333334,24.143411177101015
1.1000000000000019,21.945724947385457
1.1166666666666678,19.58993312252872
1.133333333333334,16.537759509621605
1.15,14.509590942747721
1.1666666666666679,11.883234227933041
1.183333333333334,9.275953891151733
1.2000000000000017,6.630718503680786
1.2166666666666661,3.9186317151759242
1.2333333333333338,1.2222924851834827
1.25,-1.4744734060392501
1.266666666666668,-4.3158632719179995
1.2833333333333339,-6.791698384282061
1.3,-9.502484420419695
1.316666666666668,-12.074931571726397
1.333333333333334,-14.668962951524746
1.3500000000000019,-17.210841396190204
1.3666666666666678,-19.627153186906007
1.383333333333334,-21.998482365256816
1.4,-24.41692378254368
1.4166666666666679,-26.7005187151879
1.433333333333334,-28.898758809770108
1.4500000000000017,-31.102012239302375
1.4666666666666661,-33.1395680889587
1.4833333333333338,-35.06308197272947
1.5,-36.854361757065426
1.516666666666668,-38.57163639389162
1.5333333333333339,-40.06934539862774
1.55,-41.44312218458362
1.566666666666668,-42.66818442247252
1.583333333333334,-43.750497618416446
1.6000000000000019,-44.63776454662318
1.6166666666666678,-45.51373946636495
1.633333333333334,-46.21585437372916
1.65,-46.716452265907236
1.6666666666666679,-47.046682579758276
1.683333333333334,-47.19118914854301
1.7000000000000017,-47.193085144875006
1.7166666666666661,-47.037283503289316
1.7333333333333338,-46.65022107804055
1.75,-46.11089273717183
1.766666666666668,-45.43333990179038
1.7833333333333339,-44.72484913794158
1.8,-43.64989846408778
1.816666666666668,-42.559064973458426
1.833333333333334,-41.24452726684463
1.8500000000000019,-39.83657612616051
1.8666666666666678,-38.27271515303664
1.883333333333334,-36.63471830781551
1.9,-34.7901808996612
1.9166666666666679,-32.864187288206864
1.933333333333334,-30.748272592392745
1.9500000000000017,-28.621922596524744
1.9666666666666661,-26.422705552205745
1.9833333333333338,-24.058128089018894
2.0,-21.669138781430757
2.016666666666668,-19.304154204778435
2.033333333333334,-16.761657646432802
2.05,-14.14379376250574
2.0666666666666678,-11.483689821344088
2.083333333333334,-8.90914703035358
2.100000000000002,-6.264386303800685
2.116666666666668,-3.7228415614081207
2.1333333333333337,-0.8789199060760214
2.15,1.9718814610093194
2.166666666666668,4.532288137798721
2.183333333333334,6.946340858433124
2.200000000000002,9.606837209485663
2.216666666666666,12.364395629489497
2.233333333333334,14.694913318506364
2.25,17.50655959627958
2.266666666666668,19.897188431126715
2.283333333333334,22.24161809778448
2.3,24.609502603731237
2.3166666666666678,26.708661232161717
2.333333333333334,28.746183395068385
2.350000000000002,30.84356220778829
2.366666666666668,32.6785521684028
2.3833333333333337,34.48320218707121
2.4,36.061949128536725
2.416666666666668,37.63600775332286
2.433333333333334,38.986279688942034
2.450000000000002,40.22798464778488
2.466666666666666,41.19773540072791
2.483333333333334,42.383606414055606
2.5,43.025345685177655
2.516666666666668,44.04087188119921
2.533333333333334,44.681498166033506
2.55,45.10637092507713
2.5666666666666678,45.431292777714525
2.583333333333334,45.645635781719506
2.600000000000002,45.75221917046531
2.616666666666668,45.65477906500506
2.6333333333333337,45.43764780308603
2.65,45.04287727972951
2.666666666666668,44.56706665147085
2.683333333333334,43.78291369823684
2.700000000000002,42.97153191963667
2.716666666666666,41.944302103946654
2.733333333333334,40.70506792702953
2.75,39.417445524734056
2.766666666666668,38.163122094550296
2.783333333333334,36.550604003455696
2.8,34.90714599095366
2.8166666666666678,33.09440218534985
2.833333333333334,31.220904822226128
2.850000000000002,29.21544642984559
2.866666666666668,27.151465512606897
2.8833333333333337,25.05090882000189
2.9,22.979429923955077
2.916666666666668,20.637606774013708
2.933333333333334,18.32097981894482
2.950000000000002,15.787801345888552
2.966666666666666,13.301981325946324
2.983333333333334,10.919941746884914
3.0,8.387775616700225
3.016666666666668,5.962967403967337
3.033333333333336,3.6999712038973094
3.05,0.6956390930318634
3.0666666666666678,-1.9266857030575595
3.083333333333334,-4.552766856941234
3.100000000000002,-7.400197290379933
3.116666666666668,-9.96261658773571
3.1333333333333337,-12.602784632942576
3.15,-14.975850033398514
3.166666666666668,-17.43937407341636
3.183333333333334,-19.695166926194158
3.200000000000002,-22.234493007207014
3.216666666666666,-24.508936093992908
3.233333333333334,-26.84861588469492
3.25,-29.041568955861752
3.266666666666668,-31.090729034303624
3.283333333333336,-33.021989678764974
3.3,-34.884135538687424
3.3166666666666678,-36.448543576562216
3.333333333333334,-38.111066793947295
3.350000000000002,-39.39965195317615
3.366666666666668,-40.83609096560424
3.3833333333333337,-41.97042321357605
3.4,-42.997087416433395
3.416666666666668,-43.83974012500689
3.433333333333334,-44.47756317472685
3.450000000000002,-45.03037743011943
3.466666666666666,-45.57602217076946
3.483333333333334,-45.88966667340377
3.5,-45.998174154275006
3.516666666666668,-46.00050402790607
3.533333333333336,-45.89334103687421
3.55,-45.58480339152301
3.5666666666666678,-45.185698091053155
3.583333333333334,-44.50715979629404
3.600000000000002,-43.80204095235718
3.616666666666668,-42.94291948463577
3.6333333333333337,-41.918638341615626
3.65,-40.69375392566895
3.666666666666668,-39.41220689279961
3.683333333333334,-37.90262794780271
3.700000000000002,-36.307381042182904
3.716666666666666,-34.726735970840345
3.733333333333334,-32.8441022093499
3.75,-31.08002179284737
3.766666666666668,-29.087660558881357
3.783333333333336,-26.745403362120026
3.8,-24.58098020435843
3.8166666666666678,-22.080224352220316
3.833333333333334,-19.82121922932047
3.850000000000002,-17.351006522875217
3.866666666666668,-14.824896783199993
3.8833333333333337,-12.400304680594024
3.9,-9.83897278797443
3.916666666666668,-7.149977107479045
3.933333333333334,-4.5348556378936875
3.950000000000002,-1.9194282798007005
3.966666666666666,0.6229390025970393
3.983333333333334,3.397984491246661
4.0,5.958122071017269
4.0166666666666675,8.690534562034607
4.033333333333336,10.9818615959109
4.05,13.285341704936018
4.066666666666668,15.629234929736405
4.083333333333334,18.22626389808895
4.100000000000001,20.54441190071448
4.116666666666668,22.65268412802291
4.133333333333334,24.886118466220683
4.15,26.880645720418403
4.166666666666668,28.842359815704082
4.183333333333334,30.8434993903709
4.200000000000002,32.27576951618347
4.216666666666666,33.809414268694155
4.233333333333334,35.28300667711717
4.25,36.79290022836671
4.2666666666666675,38.05102456102265
4.283333333333336,39.29897604464807
4.3,40.46614957136712
4.316666666666668,41.38978704130524
4.333333333333334,42.194007920147314
4.350000000000001,42.90143757997443
4.366666666666668,43.35437426529782
4.383333333333334,43.66020312966715
4.4,43.873425923195704
4.416666666666668,43.979994599967156
4.433333333333334,43.88248608016482
4.450000000000002,43.69149107428986
4.466666666666666,43.30383470805735
4.483333333333334,42.84292260241642
4.5,42.12936305301196
4.5166666666666675,41.326620817129566
4.533333333333336,40.326572927902944
4.55,39.26439079830968
4.566666666666668,38.02131940088633
4.583333333333334,36.61363682981572
4.600000000000001,35.042567178645655
4.616666666666668,33.53575527463361
4.633333333333334,31.83659263639446
4.65,29.903688269155953
4.666666666666668,28.09579322829254
4.683333333333334,25.95692268962414
4.700000000000002,23.790196223984307
4.716666666666668,22.2262959258715
4.733333333333334,20.281968472455695
4.75,18.029376172922735
4.766666666666669,15.661702854952091
4.783333333333336,13.095033473011318
4.8,10.93179758952068
4.816666666666666,8.17469450870059
4.833333333333336,5.595074972808171
4.850000000000001,3.1773864032775254
4.866666666666668,0.5456570570902655
4.883333333333332,-2.0053918098474677
4.900000000000002,-4.558376289667044
4.916666666666668,-7.11726349303596
4.933333333333334,-9.819408299797162
4.95,-12.382335914956954
4.966666666666668,-14.904027464110218
4.983333333333334,-17.071812405542953
5.0,-19.460912283005
5.016666666666669,-21.82247984186977
5.033333333333336,-24.048486171210335
5.05,-26.061665150743067
5.066666666666666,-28.10394072674147
5.083333333333336,-30.008403504136986
5.1,-31.58663587371051
5.116666666666668,-33.45211694592189
5.133333333333332,-35.09115755802499
5.150000000000004,-36.40756524303551
5.166666666666668,-37.822947176376324
5.183333333333332,-39.17407792265043
5.2,-40.21183119496237
5.216666666666668,-41.24778631336043
5.233333333333336,-42.07276959308857
5.25,-42.84327054542849
5.2666666666666675,-43.405132322204324
5.283333333333336,-43.9498519374607
5.3,-44.169786193030404
5.316666666666668,-44.27222664006879
5.333333333333336,-44.26649815181312
5.35,-44.15094040943488
5.366666666666668,-43.84618173634931
5.383333333333332,-43.20617452049881
5.400000000000004,-42.62190567679971
5.416666666666668,-41.772317232104214
5.433333333333332,-40.847298542256645
5.45,-39.78395637180941
5.466666666666668,-38.50763323247234
5.483333333333336,-37.10278642704357
5.5,-35.668561820621456
5.5166666666666675,-34.00839598343996
5.533333333333336,-32.29798643388808
5.55,-30.579308309089917
5.566666666666668,-28.525494810857154
5.583333333333336,-26.551464340408874
5.6,-24.468032072239478
5.616666666666668,-22.100840027470234
5.633333333333332,-19.96190432893916
5.650000000000004,-17.49756044283325
5.666666666666668,-15.253826538671794
5.683333333333332,-12.830165865602726
5.7,-10.546960968282715
5.716666666666668,-7.918471034939781
5.733333333333336,-6.038584083995845
5.75,-3.492990384307557
5.7666666666666675,-0.8749345302787035
5.783333333333336,1.5182260315037
5.8,3.846986393155413
5.816666666666668,6.640800810524475
5.833333333333336,9.148963367014785
5.85,11.527938975267444
5.866666666666668,13.61250290934803
5.883333333333332,16.028630628195675
5.900000000000004,18.487001244756268
5.916666666666668,20.739853593695624
5.933333333333332,22.845861545414305
5.95,24.8431508933392
5.966666666666668,26.77573267607952
5.983333333333336,28.74432979054815
6.0,30.576939459453943
6.0166666666666675,32.3517871023623
6.033333333333336,33.446982335308505
6.05,34.92223420823378
6.066666666666668,36.22957157986193
6.083333333333336,37.708607696235006
6.1,38.686712721968924
6.116666666666668,39.60508435959377
6.133333333333332,40.314104369649314
6.150000000000004,41.11783783129115
6.166666666666668,41.64189768004539
6.183333333333332,42.14787903992797
6.2,42.480155859567226
6.216666666666668,42.660795396680186
6.233333333333336,42.67121694708301
6.25,42.55538936233259
6.2666666666666675,42.327879744458194
6.283333333333336,41.85279842207813
6.3,41.270154116227964
6.316666666666668,40.50125017315607
6.333333333333336,39.67369479813126
6.35,38.711828535679935
6.366666666666668,37.578802192417626
6.383333333333332,36.323564010953845
6.400000000000004,34.954346733606194
6.416666666666668,33.55328331623408
6.433333333333332,31.754846946672686
6.45,30.24500763701993
6.466666666666668,28.337610973701246
6.483333333333336,26.59697859103651
6.5,24.592956898355137
6.5166666666666675,22.51932907985804
6.533333333333336,20.39691420026978
6.55,18.21784059896699
6.566666666666668,16.082633567118794
6.583333333333336,13.729320249224653
6.6,11.33215596711979
6.616666666666668,8.872226625987013
6.633333333333332,6.356206479892599
6.650000000000004,4.311842862294587
6.666666666666668,1.7485957282108755
6.683333333333332,-0.7315411983162318
6.7,-3.28236210071217
6.716666666666668,-5.832457792929133
6.733333333333336,-8.31038340618106
6.75,-10.72730159186137
6.7666666666666675,-13.065963762362843
6.783333333333336,-14.619333556854691
6.8,-16.995442861616834
6.816666666666668,-19.020812380269582
6.833333333333336,-21.28607117158295
6.85,-23.34987548598641
6.866666666666668,-25.427992505810163
6.883333333333332,-27.384369625309297
6.900000000000004,-29.32859343093778
6.916666666666668,-31.102819355332805
6.933333333333332,-32.77553857940596
6.95,-34.3783811726514
6.966666666666668,-35.79299955320373
6.983333333333336,-37.137134923925906
7.0,-38.29677756628563
7.0166666666666675,-39.431892561157404
7.033333333333336,-40.36879814541089
7.05,-41.17733362436583
7.066666666666668,-41.761233204507775
7.083333333333336,-42.306749573268796
7.1,-42.590924137674314
7.116666666666668,-42.84336177707745
7.133333333333332,-42.92332736361859
7.150000000000004,-42.817278511087814
7.166666666666668,-42.552261731805885
7.183333333333332,-42.08400939024225
7.2,-41.60173260511252
7.216666666666668,-40.906768652885596
7.233333333333336,-40.02628739392731
7.25,-39.08240552212128
7.2666666666666675,-37.98360379866921
7.283333333333336,-36.59560925097728
7.3,-35.24568790049302
7.316666666666668,-33.76082084501423
7.333333333333336,-32.06203254680647
7.35,-30.476004661133842
7.366666666666668,-28.565910407083543
7.383333333333332,-26.62279556793557
7.400000000000004,-24.594537230787132
7.416666666666668,-22.527788208843916
7.433333333333332,-20.249800883724145
7.45,-18.160186660637905
7.466666666666668,-15.847783021379481
7.483333333333336,-13.563824978159483
7.5,-11.072136082537485
7.5166666666666675,-8.589643998066684
7.533333333333336,-6.186273318501238
7.55,-3.788124254103689
7.566666666666668,-1.3198163067947506
7.583333333333336,0.47173877433171924
7.6,2.7202761391558283
7.616666666666668,5.282552622012927
7.633333333333332,8.536209722848902
7.650000000000004,9.917197294130949
7.666666666666668,12.381397341639175
7.683333333333332,14.637737184076038
7.700000000000004,17.149170409197506
7.716666666666668,19.061306840829655
7.733333333333336,21.578813716019287
7.75,23.547087431109738
7.7666666666666675,25.38112564347328
7.783333333333336,27.417707117302076
7.8,29.052423329303476
7.816666666666668,30.72026254901682
7.833333333333336,32.32140942510814
7.85,33.69925140993728
7.866666666666668,35.00481891659468
7.883333333333332,36.21049793550515
7.900000000000004,37.35182957373568
7.916666666666668,38.16398683542672
7.933333333333332,39.033270980201294
7.950000000000004,39.740025948097895
7.966666666666668,40.350729344721145
7.983333333333336,40.77643346825527
8.0,41.10796454057281
8.016666666666667,41.363760390681
8.033333333333335,41.4193094238633
8.05,41.343014828564655
8.066666666666668,41.12130587191047
8.083333333333336,40.81016593363088
8.1,40.26772238465294
8.116666666666667,39.67715453377171
8.133333333333333,38.89127207688696
8.150000000000004,38.0088263140507
8.166666666666668,36.887617223207364
8.183333333333332,35.74488123023799
8.200000000000003,34.50321780392134
8.216666666666669,32.98379045258446
8.233333333333336,31.51867680759297
8.25,29.852669332482712
8.266666666666667,28.108098681071997
8.283333333333335,26.29493897861203
8.3,24.504096886851435
8.316666666666668,22.426592827977917
8.333333333333336,20.31260953283534
8.35,18.28541136682442
8.366666666666667,16.0519858811835
8.383333333333333,13.841266450072226
8.400000000000004,11.504396746229576
8.416666666666668,9.265378329960551
8.433333333333332,6.892521158462754
8.450000000000003,4.690672183204716
8.466666666666669,2.197023109272725
8.483333333333336,-0.20853660571396293
8.5,-2.605276422728913
8.516666666666667,-5.006814546778311
8.533333333333335,-7.406122437740084
8.55,-9.814999826077685
8.566666666666668,-12.153297910278974
8.583333333333336,-14.363314616961274
8.6,-16.58187921051667
8.616666666666667,-18.801941599333574
8.633333333333333,-20.971323652371858
8.650000000000004,-23.029381329234486
8.666666666666668,-24.549526571761128
8.683333333333332,-26.78182414636397
8.700000000000003,-28.484905785701002
8.716666666666669,-29.95943538971502
8.733333333333336,-31.56174076860107
8.75,-33.06929904974012
8.766666666666667,-34.593703615959775
8.783333333333335,-35.90891254611759
8.8,-37.105531021798065
8.816666666666668,-38.19896041739608
8.833333333333336,-39.09085332377492
8.85,-39.90878284129997
8.866666666666667,-40.62947145764208
8.883333333333333,-41.23954484965423
8.900000000000004,-41.606959076422626
8.916666666666668,-41.82028601303028
8.933333333333332,-41.88251994709592
8.950000000000003,-41.86784527764661
8.966666666666669,-41.666059599946315
8.983333333333336,-41.31297924968176
9.0,-40.754088098978016
9.016666666666667,-40.02921742025912
9.033333333333335,-39.28575973054332
9.05,-38.23168991177783
9.066666666666668,-37.23385244602978
9.083333333333336,-36.065323734346826
9.1,-34.6933301149212
9.116666666666667,-33.31171200394501
9.133333333333333,-31.77604858547728
9.150000000000004,-30.058973334055025
9.166666666666668,-28.317936502324077
9.183333333333332,-26.448433207962736
9.200000000000003,-24.442932244671937
9.216666666666669,-22.46829835817399
9.233333333333336,-20.349245402660483
9.25,-18.170680434683227
9.266666666666667,-15.969490627295752
9.283333333333335,-13.543668310046785
9.3,-11.277300264560186
9.316666666666668,-8.874736012754411
9.333333333333336,-6.544671218053074
9.35,-5.125867278265788
9.366666666666667,-1.9182325751312634
9.383333333333333,0.02464705459617808
9.400000000000004,2.1945122120758076
9.416666666666668,4.67399681266498
9.433333333333332,7.318953220638401
9.450000000000003,9.53152976139218
9.466666666666669,11.60118270450802
9.483333333333336,14.081348064665933
9.5,15.955246506687576
9.516666666666667,18.34682341899876
9.533333333333335,20.52117361634345
9.55,22.561093428284565
9.566666666666668,24.228568239282932
9.583333333333336,26.23198623925894
9.6,27.862621448340526
9.616666666666667,29.69971292200675
9.633333333333333,30.355666206829373
9.650000000000004,31.79236682054232
9.666666666666668,33.17400251448825
9.683333333333332,34.48019251113723
9.700000000000003,35.78854930428353
9.716666666666669,36.72931203052866
