Weight,60
Length,0.734
Angle,40
t,theta
0,-35.0056499742233
0.0166666666666642,-34.2258769732615
0.0333333333333321,-33.2473725453926
0.05,-32.1758481233301
0.0666666666666678,-31.0057157433931
0.0833333333333321,-29.7313162838619
0.0999999999999963,-28.3695882671901
0.116666666666667,-26.9493333380136
0.133333333333332,-25.3589367583311
0.15,-23.6275058832528
0.166666666666664,-22.0014050161718
0.183333333333332,-20.1182207346391
0.2,-18.2651765873298
0.216666666666664,-16.2802978206997
0.233333333333332,-14.3298351726193
0.25,-12.2618296748091
0.266666666666664,-10.2102007914169
0.283333333333332,-8.03949568684102
0.3,-5.82107430078139
0.316666666666667,-3.61701790266504
0.333333333333332,-1.41318188149787
0.349999999999996,0.724261054241619
0.366666666666667,2.98501240178233
0.383333333333332,5.18719423702042
0.4,7.39091281175658
0.416666666666664,9.60563320831019
0.433333333333332,11.7590899761753
0.45,13.8695526141739
0.466666666666664,15.9797640431983
0.483333333333332,17.9929149675699
0.5,20.0106942903098
0.516666666666664,21.7964792459075
0.533333333333332,23.5832333361512
0.55,25.4114775265199
0.566666666666667,26.9852010184116
0.583333333333332,28.3478196772722
0.599999999999996,29.870790872923
0.616666666666667,31.1916146131283
0.633333333333332,32.3809998723611
0.65,33.5850513444275
0.666666666666664,34.5614786749139
0.683333333333332,35.4573273484378
0.7,36.2467723768877
0.716666666666664,36.9291544761851
0.733333333333332,37.4915534463184
0.75,37.9069967673506
0.766666666666664,38.222372271854
0.783333333333332,38.3582732020336
0.8,38.4800227228446
0.816666666666667,38.4164207165105
0.833333333333332,38.2549703557042
0.849999999999996,37.9608602270168
0.866666666666667,37.5815114416153
0.883333333333332,37.0401421649217
0.9,36.3956043060808
0.916666666666664,35.6205952705702
0.933333333333332,34.761990179224
0.95,33.7862602474015
0.966666666666664,32.6608164369457
0.983333333333332,31.4697048232248
1,30.1451103178661
1.01666666666666,28.7564978801891
1.03333333333333,27.3028467011041
1.05,25.729553736865
1.06666666666666,23.9783222160865
1.08333333333333,22.3084117328422
1.09999999999999,20.4454109219991
1.11666666666666,18.5400182445022
1.13333333333333,16.6525430877272
1.15,14.5895038666831
1.16666666666666,12.6593532807367
1.18333333333333,10.4915633721419
1.2,8.45844845952178
1.21666666666666,6.30584683160325
1.23333333333333,4.09875339269929
1.25,1.95803997189639
1.26666666666666,-0.185762847637858
1.28333333333333,-2.39067727565146
1.3,-4.54180500106948
1.31666666666666,-6.76975489024585
1.33333333333333,-8.93336920800415
1.34999999999999,-10.9820085773974
1.36666666666666,-13.0452080905315
1.38333333333333,-14.9993520415895
1.4,-16.9682727313681
1.41666666666666,-18.8793423876501
1.43333333333333,-20.7320338359944
1.45,-22.4881369524246
1.46666666666666,-24.1370054955574
1.48333333333333,-25.698743036434
1.5,-27.1547624581537
1.51666666666666,-28.4924514485538
1.53333333333333,-29.8207912549021
1.55,-31.0391768838883
1.56666666666666,-32.0398585987515
1.58333333333333,-33.0498328529286
1.59999999999999,-33.8188061082177
1.61666666666666,-34.5146202320511
1.63333333333333,-35.1499073176825
1.65,-35.6075417009406
1.66666666666666,-35.857469448412
1.68333333333333,-35.9978879305896
1.7,-36.0751333102259
1.71666666666666,-35.9929245476728
1.73333333333333,-35.7897606301168
1.75,-35.4869749717976
1.76666666666666,-34.8931607073163
1.78333333333333,-34.3249234645849
1.8,-33.5554390922173
1.81666666666666,-32.7502505656833
1.83333333333333,-31.8187234736922
1.84999999999999,-30.5822618923341
1.86666666666666,-29.4838305631798
1.88333333333333,-28.2075365255223
1.9,-26.8307696536575
1.91666666666666,-25.2971946446476
1.93333333333333,-23.7933448366074
1.95,-22.0911697375334
1.96666666666666,-20.3604631379377
1.98333333333333,-18.5084117366509
2,-16.6625455984525
2.01666666666666,-14.6450393283686
2.03333333333333,-12.641872723362
2.05,-10.5895101574472
2.06666666666666,-8.48834434561022
2.08333333333333,-6.3359384492961
2.09999999999999,-4.19341762040808
2.11666666666666,-2.12081034990107
2.13333333333333,0.0782994829247498
2.15,2.27434097350026
2.16666666666666,4.46762780099926
2.18333333333333,6.55131844436472
2.2,8.69537165455739
2.21666666666666,10.7805902105652
2.23333333333333,12.8233906698613
2.25,14.8114966586786
2.26666666666666,16.8094620933598
2.28333333333333,18.6922482546651
2.3,20.5319735122622
2.31666666666666,22.3766921419407
2.33333333333333,24.0639761667267
2.34999999999999,25.6867366108749
2.36666666666666,27.1891511358878
2.38333333333333,28.6374698259102
2.4,30.0501842036549
2.41666666666666,31.164256829955
2.43333333333333,32.3396832462618
2.45,33.3961378594245
2.46666666666666,34.2563069080862
2.48333333333333,35.0552561453683
2.5,35.7326110378181
2.51666666666666,36.2987182223882
2.53333333333333,36.719054217969
2.55,37.0412298542286
2.56666666666666,37.2192956910779
2.58333333333333,37.3038100732848
2.59999999999999,37.3027723358456
2.61666666666666,37.1492266045967
2.63333333333333,36.9327627804461
2.65,36.600877615897
2.66666666666666,36.1591295076224
2.68333333333333,35.5289917043842
2.7,34.8501313559617
2.71666666666666,34.0555220183048
2.73333333333333,33.0942283108757
2.75,32.083280148041
2.76666666666666,30.9057621384827
2.78333333333333,29.6586992135786
2.8,28.3922479514468
2.81666666666666,26.906447347951
2.83333333333333,25.4669649766194
2.84999999999999,23.836104418953
2.86666666666666,22.1032552358661
2.88333333333333,20.3730628498273
2.9,18.5256095061295
2.91666666666666,16.7037674533287
2.93333333333333,14.7511435072311
2.95,12.8205002035215
2.96666666666666,10.7754038110988
2.98333333333333,8.73406336887203
3,6.64456289781864
3.01666666666666,4.49711306519713
3.03333333333333,2.34664063561729
3.05,0.265471344815167
3.06666666666666,-1.87764625906702
3.08333333333333,-4.02454661738114
3.09999999999999,-6.11380503486621
3.11666666666666,-8.20933107502863
3.13333333333333,-10.3155280744428
3.15,-12.2542043281463
3.16666666666666,-14.1907594509645
3.18333333333333,-16.1312914736521
3.2,-18.0262726356747
3.21666666666666,-19.8121560927862
3.23333333333333,-21.4940851800779
3.25,-23.162697837338
3.26666666666666,-24.7697660407391
3.28333333333333,-26.2284200417642
3.3,-27.6076235817348
3.31666666666666,-28.8590570210704
3.33333333333333,-30.0417774355562
3.34999999999999,-31.0829973844588
3.36666666666666,-32.0561463446423
3.38333333333333,-32.9216753408051
3.4,-33.6141193152
3.41666666666666,-34.2070790071914
3.43333333333333,-34.6814141228091
3.45,-34.9674599323949
3.46666666666666,-35.1897869279771
3.48333333333333,-35.2435527312523
3.5,-35.1835487580686
3.51666666666666,-34.9997646384735
3.53333333333333,-34.6838607180962
3.55,-34.1383531505789
3.56666666666666,-33.5851528700987
3.58333333333333,-32.8890475580207
3.59999999999999,-32.0113528928983
3.61666666666666,-31.1169814692233
3.63333333333333,-30.0455961928967
3.65,-28.9125749531929
3.66666666666666,-27.6833862598045
3.68333333333333,-26.3127944881551
3.7,-24.857394314024
3.71666666666666,-23.3138626478046
3.73333333333333,-21.6986990371533
3.75,-19.9668535887748
3.76666666666666,-18.2514502311196
3.78333333333333,-16.3701248161848
3.8,-14.4816298508858
3.81666666666666,-12.5595672535544
3.83333333333333,-10.577357938758
3.84999999999999,-8.55271880876423
3.86666666666666,-6.461659078823
3.88333333333333,-4.38328432756675
3.9,-2.30823077426859
3.91666666666666,-0.181098708167304
3.93333333333333,1.89339550780564
3.95,4.02328867490713
3.96666666666666,6.10000102688128
3.98333333333333,8.17920316082093
4,10.2645484468562
4.01666666666666,12.2463590539488
4.03333333333333,14.2303705030915
4.05,16.1708994226944
4.06666666666666,18.0495746765943
4.08333333333333,19.8213587709162
4.09999999999999,21.5531910736085
4.11666666666666,23.2178128755428
4.13333333333333,24.8360145299368
4.15,26.2626647047766
4.16666666666666,27.7121944032259
4.18333333333333,29.0161922565684
4.2,30.2125977838256
4.21666666666666,31.3367421750087
4.23333333333333,32.3330021800801
4.25,33.2504357366569
4.26666666666666,34.029748486669
4.28333333333333,34.6847026013722
4.3,35.2324339202924
4.31666666666666,35.6873609677051
4.33333333333333,36.0058827916369
4.34999999999999,36.2017151315044
4.36666666666666,36.293353435677
4.38333333333333,36.2894442396899
4.4,36.1752205595886
4.41666666666666,35.9786590479987
4.43333333333333,35.6279889774209
4.45,35.1733182348291
4.46666666666666,34.6166628457865
4.48333333333333,33.9841934793915
4.5,33.1741359485209
4.51666666666666,32.3024450932823
4.53333333333333,31.2837099508052
4.55,30.2170627372811
4.56666666666666,28.9691088092231
4.58333333333333,27.6546814667556
4.59999999999999,26.2839155320348
4.61666666666666,24.8365095884102
4.63333333333333,23.3032505035355
4.65,21.6788131703442
4.66666666666666,19.9624767687271
4.68333333333333,18.238854281323
4.7,16.402938321116
4.71666666666666,14.4613253008965
4.73333333333333,12.5884688938908
4.75,10.596334298878
4.76666666666666,8.625112205688
4.78333333333333,6.58281215381007
4.8,4.56216782197766
4.81666666666666,2.48218993936696
4.83333333333333,0.398926453006315
4.84999999999999,-1.67916644911241
4.86666666666666,-3.75663534905187
4.88333333333333,-5.78496672012597
4.9,-7.81327521006261
4.91666666666666,-9.78577838987211
4.93333333333333,-11.8274111571669
4.95,-13.6913720141087
4.96666666666666,-15.5722748187075
4.98333333333333,-17.3967485710846
5,-19.1146661496999
5.01666666666666,-20.8237112484312
5.03333333333333,-22.414664568333
5.05,-24.012696451144
5.06666666666666,-25.359823556119
5.08333333333333,-26.7914787829824
5.09999999999999,-27.9620515023773
5.11666666666666,-29.1872343419661
5.13333333333333,-30.2270508980306
5.15,-31.1295902382127
5.16666666666666,-32.008768631812
5.18333333333333,-32.7171188316744
5.2,-33.2379892774265
5.21666666666666,-33.7396766108023
5.23333333333333,-34.0602318979043
5.25,-34.2102279670235
5.26666666666666,-34.2585119803391
5.28333333333333,-34.2410633728407
5.3,-34.0389319504414
5.31666666666666,-33.771196788284
5.33333333333333,-33.3784550811318
5.34999999999999,-32.7002374784446
5.36666666666666,-32.0071897293463
5.38333333333333,-31.2090983143966
5.4,-30.3167570482198
5.41666666666666,-29.293491997438
5.43333333333333,-28.1598092124736
5.45,-26.9420519188781
5.46666666666666,-25.5656712405847
5.48333333333333,-24.2107266418407
5.5,-22.6908295705644
5.51666666666666,-21.076628649351
5.53333333333333,-19.4313910582375
5.55,-17.6750790323397
5.56666666666666,-15.9165218464972
5.58333333333333,-14.0486941219131
5.59999999999999,-12.1304513592202
5.61666666666666,-10.2229803980081
5.63333333333333,-8.20551954101832
5.65,-6.24341294266023
5.66666666666666,-4.18242097463755
5.68333333333333,-2.17854311289068
5.7,-0.175389752890047
5.71666666666666,1.88822310862986
5.73333333333333,3.95375484485311
5.75,6.0249801855069
5.76666666666666,8.04538203779875
5.78333333333333,9.9956628434481
5.8,11.905963588197
5.81666666666666,13.9556401966729
5.83333333333333,15.7010427637659
5.84999999999999,17.5803581436158
5.86666666666666,19.2894885506614
5.88333333333333,20.9991791395193
5.9,22.614599818708
5.91666666666666,24.2201678421622
5.93333333333333,25.6359459646977
5.95,26.9472015823211
5.96666666666666,28.3381126110222
5.98333333333333,29.4495251628975
6,30.5002867713158
6.01666666666666,31.4222478666668
6.03333333333333,32.3373720943868
6.05,33.1073890730389
6.06666666666666,33.7855812231359
6.08333333333333,34.2664804070205
6.09999999999999,34.7044810914055
6.11666666666666,35.0074465186775
6.13333333333333,35.2245867946555
6.15,35.2963725638569
6.16666666666666,35.3000501015937
6.18333333333333,35.1805698342885
6.2,34.9767842724178
6.21666666666666,34.6210248228758
6.23333333333333,34.116160345825
6.25,33.5664969331228
6.26666666666666,32.8800857069651
6.28333333333333,32.0305818266731
6.3,31.2688265925296
6.31666666666666,30.2539400979216
6.33333333333333,29.1514625567858
6.35,27.9166564710648
6.36666666666666,26.7459102289307
6.38333333333333,25.3180551695966
6.4,23.9021256353722
6.41666666666666,22.3696491365425
6.43333333333332,20.7735288540588
6.45,19.1250326381245
6.46666666666666,17.3121295146872
6.48333333333333,15.5661920703124
6.5,13.7040293141693
6.51666666666666,11.7962405571853
6.53333333333333,9.84926126238836
6.54999999999999,7.94957213627546
6.56666666666666,5.94609624543114
6.58333333333333,3.88206621295079
6.6,1.94457749510787
6.61666666666666,-0.0519949814667716
6.63333333333333,-2.09904184168271
6.65,-4.16696502578355
6.66666666666666,-6.11404926221995
6.68333333333332,-8.1146654685505
6.7,-10.0235483144827
6.71666666666666,-11.9308593897276
6.73333333333333,-13.8373862439346
6.75,-15.6427777052391
6.76666666666666,-17.4463471972406
6.78333333333333,-19.0919553344307
6.79999999999999,-20.6860217400931
6.81666666666666,-22.3313907683428
6.83333333333333,-23.7393626052055
6.85,-25.1106368869946
6.86666666666666,-26.3897057193994
6.88333333333333,-27.6471829775944
6.9,-28.6600181866482
6.91666666666666,-29.6517462798306
6.93333333333332,-30.4944250413277
6.95,-31.2971769361075
6.96666666666666,-31.9539718248826
6.98333333333333,-32.4227644101891
7,-32.8318159265858
7.01666666666666,-33.0676350710582
7.03333333333333,-33.1605098941733
7.04999999999999,-33.1858470697294
7.06666666666666,-33.1007941086587
7.08333333333333,-32.8890242173846
7.1,-32.5301481949653
7.11666666666666,-32.014780018083
7.13333333333333,-31.3987191428302
7.15,-30.6027685711484
7.16666666666666,-29.8708558469244
7.18333333333332,-28.9286836867317
7.2,-27.8681160844537
7.21666666666667,-26.7154020856822
7.23333333333333,-25.5541500521916
7.25,-24.1484297534874
7.26666666666666,-22.7726343390802
7.28333333333332,-21.3896617346199
7.3,-19.8091749381192
7.31666666666666,-18.2706127339113
7.33333333333333,-16.5096059122021
7.35,-14.6924278417092
7.36666666666666,-12.9443032546616
7.38333333333333,-11.0766743658995
7.4,-9.16744912638257
7.41666666666666,-7.31523451597044
7.43333333333332,-5.35023501438583
7.45,-3.38319865202801
7.46666666666667,-1.42679671838839
7.48333333333333,0.655156931303453
7.5,2.60523077115049
7.51666666666666,4.56902949853597
7.53333333333332,6.52541030487027
7.55,8.49398641682681
7.56666666666666,10.396728362783
7.58333333333333,12.2541352632459
7.6,14.1104212424971
7.61666666666666,15.9839892991397
7.63333333333333,17.6748381181494
7.65,19.3018469068864
7.66666666666666,20.9507958792352
7.68333333333332,22.5343009000004
7.7,24.0659752510762
7.71666666666667,25.4171223778532
7.73333333333333,26.7487432439095
7.75,27.9555230164163
7.76666666666666,29.1189584034986
7.78333333333332,30.1349188857302
7.8,31.0258390783146
7.81666666666666,31.8433928994372
7.83333333333333,32.5851180576174
7.85,33.2317995293903
7.86666666666666,33.6898205843386
7.88333333333333,34.0604197616843
7.9,34.3385554004285
7.91666666666666,34.4928954090913
7.93333333333332,34.564418841711
7.95,34.5280103463961
7.96666666666667,34.3876912777344
7.98333333333333,34.1267929489697
8,33.8230331523943
8.01666666666666,33.3378935016149
8.03333333333332,32.7998767294293
8.05,32.1035675240077
8.06666666666666,31.3361547780535
8.08333333333333,30.3872739710652
8.1,29.4853063586374
8.11666666666666,28.3868324779701
8.13333333333333,27.1650496521307
8.15,25.9434508380182
8.16666666666666,24.5989931593525
8.18333333333332,23.0841535093711
8.2,21.6181901200737
8.21666666666667,19.9876688766377
8.23333333333333,18.2864686780591
8.25,16.6148614265326
8.26666666666666,14.8262886365697
8.28333333333332,12.9826455750751
8.3,11.0735366658208
8.31666666666666,9.25404869725125
8.33333333333333,7.30442998111014
8.35,5.36458049879305
8.36666666666666,3.36914923163845
8.38333333333333,1.43896300805754
8.4,-0.501071952129881
8.41666666666666,-2.49627432419621
8.43333333333332,-4.44070329216263
8.45,-6.38614158593559
8.46666666666667,-8.34032448453261
8.48333333333333,-10.1780975311102
8.5,-12.0159632977445
8.51666666666666,-13.8073257251861
8.53333333333332,-15.6172404087372
8.55,-17.3154573959153
8.56666666666666,-18.905152382978
8.58333333333333,-20.4677046191145
8.6,-21.9593490892938
8.61666666666666,-23.350843150335
8.63333333333333,-24.6780855126204
8.65,-25.8878371508863
8.66666666666666,-26.9841545995361
8.68333333333332,-28.0438597140219
8.7,-28.9496130449716
8.71666666666667,-29.7806479766723
8.73333333333333,-30.4824149506699
8.75,-31.0867567264563
8.76666666666666,-31.592601251029
8.78333333333332,-31.9146730730138
8.8,-32.1420288492176
8.81666666666666,-32.2316370924832
8.83333333333333,-32.2384259283663
8.85,-32.0948320243523
8.86666666666666,-31.8722145618918
8.88333333333333,-31.5329286804569
8.9,-30.9255149828536
8.91666666666666,-30.3674665328845
8.93333333333332,-29.5899069869781
8.95,-28.7708394681569
8.96666666666667,-27.8628330107855
8.98333333333333,-26.8338176185951
9,-25.6775058592843
9.01666666666666,-24.5246031169496
9.03333333333332,-23.1872191502179
9.05,-21.8243843715413
9.06666666666666,-20.4171720865359
9.08333333333333,-18.8251865608536
9.1,-17.1879511760615
9.11666666666666,-15.5974150058138
9.13333333333333,-13.8665732716095
9.15,-12.1001425785191
9.16666666666666,-10.2962004371495
9.18333333333332,-8.45136129430196
9.2,-6.59683253546006
9.21666666666667,-4.7599522920097
9.23333333333333,-2.79462961582606
9.25,-0.777358656959033
9.26666666666666,1.11546467817772
9.28333333333332,3.06887262118983
9.3,5.02092144882921
9.31666666666666,6.97085365602639
9.33333333333333,8.80461410270221
9.35,10.7070103547615
9.36666666666666,12.4843630007714
9.38333333333333,14.3401219854522
9.4,16.073221227807
9.41666666666666,17.8190386108782
9.43333333333332,19.4438542721708
9.45,20.9938051650562
9.46666666666667,22.4612050247986
9.48333333333333,23.9142187107939
9.5,25.2956856704491
9.51666666666666,26.4990771582871
9.53333333333332,27.696095375752
9.55,28.7710519624163
9.56666666666666,29.7124016272078
9.58333333333333,30.6485043962359
9.6,31.3898635656116
9.61666666666666,32.0519257190835
9.63333333333333,32.6882374508517
9.65,33.0741787986562
9.66666666666666,33.418238579991
9.68333333333332,33.6315982460294
9.7,33.783198374803
9.71666666666667,33.8221962060845
9.73333333333333,33.7516373490236
9.75,33.578476554345
9.76666666666666,33.3058049279226
9.78333333333332,32.9196886110622
9.8,32.4555190669814
9.81666666666666,31.8398623496881
9.83333333333333,31.1173089685686
9.85,30.3514540208283
9.86666666666666,29.4129210906645
9.88333333333333,28.4050454433459
9.9,27.3211328812476
9.91666666666666,26.1065902531985
9.93333333333332,24.8397681720674
9.95,23.5097160354349
9.96666666666667,22.0667400786609
9.98333333333333,20.5635684597131
10,18.9485155589772
10.0166666666666,17.3274506656571
10.0333333333333,15.6081974537788
10.05,13.8306567955031
10.0666666666666,11.9816167808336
10.0833333333333,10.1544412488028
10.1,8.39944260285067
10.1166666666666,6.52771574105323
10.1333333333333,4.58594950202542
10.15,2.65477538204415
10.1666666666666,0.780800629200944
10.1833333333333,-1.20720020525664
10.2,-3.08884969335029
10.2166666666666,-5.01740116285689
10.2333333333333,-6.91348455990292
10.25,-8.7519231098691
10.2666666666666,-10.5797289590928
10.2833333333333,-12.3164002477231
10.3,-14.0620007183619
10.3166666666666,-15.7554990435935
10.3333333333333,-17.3836769900621
10.35,-18.8995540412346
10.3666666666666,-20.3598278002479
10.3833333333333,-21.771241445099
10.4,-23.1767397469439
10.4166666666666,-24.3878022356945
